Cross-Track Error (m),Heading Error (rad),Desired Velocity (m/s),Command Steer Angle (rad),Integral of CT Error,Integral of Heading Error,Derivative of CT Error,Derivative of Heading Error
9.94162130326528e-05,-0.00010611215838185473,29.35857541190275,0.00029348160700626676,4.97081065163264e-05,-5.305607919092736e-05,0.000994162130326528,-0.0010611215838185473
0.00016888851015483563,-0.00015014909558530576,29.35857541190275,0.0004487421750183247,0.0001838604681100706,-0.0001811867061745076,0.0014449717168324577,-0.0012685261795192754
0.000251892631009833,-0.00019511848121567255,29.35857541190275,0.0006258721970000273,0.00039425103869240494,-0.00035382049457499676,0.0019368325033628964,-0.0014466976526100145
0.0003460515854836689,-0.0002416602720796135,29.35857541190275,0.0008194618833375785,0.0006932231469391559,-0.0005722098712226398,0.0024406716343317873,-0.0016067689054440207
0.00044918796488868624,-0.00028796779294815167,29.35857541190275,0.0010240682033954784,0.0010908429221253334,-0.0008370239037365224,0.0029345166044988918,-0.0017356065668954544
0.0005569579089013933,-0.0003352927607371825,29.35857541190275,0.0012314055087142553,0.001593915859020373,-0.0011486541805791894,0.003380694894705521,-0.0018502687164511063
0.0006701621293361554,-0.0003911829687357482,29.35857541190275,0.0014488517813987013,0.0022074758781391473,-0.0015118920453156548,0.0037951523723478084,-0.002021949022537866
0.0007952962936306931,-0.0004421373544429841,29.35857541190275,0.001685712128115544,0.0029402050896225715,-0.001928552206905021,0.004242707980053095,-0.0021175436157785795
0.0009141064445937588,-0.0004868437119220914,29.35857541190275,0.0018997996163794995,0.0037949064587347973,-0.0023930427400875587,0.0045513988106167655,-0.002138957117265268
0.001035067780356238,-0.000540478383647347,29.35857541190275,0.0021217555265638684,0.004769493571209796,-0.002906703787872278,0.00482352026107262,-0.0022376437479920885
0.0011620295388558573,-0.0005949168373238223,29.35857541190275,0.0023575093831089723,0.005868042230815844,-0.0034744013983578625,0.0051007143817832275,-0.0023256944635978473
0.0012902684003518895,-0.0006418374783798697,29.35857541190275,0.0025924606230228256,0.007094191200419718,-0.0040927785562097085,0.0053391195986956606,-0.002329392207089579
0.0014143956842071934,-0.0006746062839679823,29.35857541190275,0.00281238283974075,0.00844652324269926,-0.0047510004373836345,0.005496800433981031,-0.0022037645838743156
0.0015235862194139958,-0.0006915799044078241,29.35857541190275,0.0029941707715804623,0.009915514194509853,-0.005434093531571538,0.005490023402409955,-0.001957385754441184
0.001613744470099735,-0.000702558400331732,29.35857541190275,0.003137529030248595,0.011484179539266719,-0.006131162683941316,0.0053114577900239554,-0.0017013019438510398
0.0016901729174415047,-0.0007023991446324374,29.35857541190275,0.003255911571103623,0.013136138233037338,-0.0068336414564234005,0.005040542258581144,-0.001390526538611809
0.0017420557901139805,-0.0006792585799795248,29.35857541190275,0.00332083914082964,0.01485225258681508,-0.0075244703187293815,0.004595742508588897,-0.0009273347620195473
0.001761712124006478,-0.0006351932842880714,29.35857541190275,0.00331966619375637,0.01660413654387531,-0.00818169625086318,0.003938846906049983,-0.00035813484445732646
0.0017459709258569312,-0.000575222132366271,29.35857541190275,0.003252096709225035,0.018357978068807016,-0.00878690395919035,0.003079591121772289,0.000252172872005828
0.0016962627346131837,-0.00050870057983321,29.35857541190275,0.003129901119395735,0.020079094899042072,-0.009328865315290091,0.002067772815597804,0.0008110646455780493
0.001622916622702846,-0.0004399482342680727,29.35857541190275,0.002981029478861133,0.021738684577700087,-0.009803189722340733,0.0010250312863042239,0.0012886196697014702
0.0015316774629697428,-0.0003763713322078033,29.35857541190275,0.002821535819624629,0.023315981620536382,-0.01021134950557867,9.215054857063688e-06,0.0016322970212127438
0.0014406525564882198,-0.00031034337637692033,29.35857541190275,0.0026865406940762737,0.024802146630265365,-0.010554706859871033,-0.0008199595594944293,0.001935769888545726
0.001341096393858663,-0.00024229470268810616,29.35857541190275,0.0025506988063424916,0.026193021105438807,-0.010831025899403546,-0.0015759320271277759,0.0022024360332539043
0.0012500944416206853,-0.00017674887808905027,29.35857541190275,0.0024520976317404003,0.02748861652317848,-0.011040547689792124,-0.0021166894061770696,0.002397864250835521
0.0011618080870553168,-0.00010809972401037982,29.35857541190275,0.002368636825544007,0.02869456778751648,-0.011182971990841839,-0.0025344400101936795,0.0025859721513987934
0.0010819555615866378,-4.3194325444417814e-05,29.35857541190275,0.0023130594641830576,0.029816449611837458,-0.011258619015569238,-0.002799564785328274,0.0027058444744713942
0.00101236639776385,3.0516505513084914e-05,29.35857541190275,0.002279080663912305,0.0308636105915127,-0.011264957925534905,-0.0029231817682030207,0.002883971215090256
0.0009384799322493481,0.00011941464385343409,29.35857541190275,0.0022268682916705526,0.0318390337565193,-0.011189992350851646,-0.0030633893150252157,0.0031677777063497466
0.0008552058643962907,0.00021360598226393204,29.35857541190275,0.0021500683002130447,0.03273587665484212,-0.011023482037792963,-0.0032634464200484285,0.0034481030180179588
0.00076329241844478,0.00031183885997750896,29.35857541190275,0.0020522138719159776,0.033545125796262655,-0.010760759616672243,-0.003505669306871539,0.003714201357592665
0.0006585350773837661,0.00042291213686862766,29.35857541190275,0.001920105603810598,0.03425603954417693,-0.010393384118249175,-0.0038206143516313846,0.004048649082495077
0.0005307074766135978,0.0005473585998261735,29.35857541190275,0.0017317061777980757,0.03485066082117561,-0.009908248749901774,-0.004288026294699935,0.0044438625489282065
0.0003783215602200519,0.000664467258050837,29.35857541190275,0.0014971522625376913,0.03530517533959244,-0.009302335820963268,-0.004893711662877636,0.004700511705710926
0.00022093811019304117,0.0007766549734765462,29.35857541190275,0.0012621206417544044,0.035604805174798984,-0.008581774705199576,-0.005434704542599981,0.0048657615358153865
5.008377028922734e-05,0.000887184416550862,29.35857541190275,0.0010034565264869552,0.03574031611504012,-0.007749855010185872,-0.00599979771579829,0.004985890739070005
-0.00011457655968230138,0.0009881370202368244,29.35857541190275,0.0007694601357085113,0.03570806972034358,-0.006812194291792029,-0.006405837494485232,0.004997116092747848
-0.00028075695497679903,0.0010770613525411025,29.35857541190275,0.0005393929270728194,0.035510402963014026,-0.005779595105403065,-0.006751870634528803,0.004896952551378038
-0.00043306093255124475,0.0011604581350280019,29.35857541190275,0.0003428935390153107,0.035153494019250005,-0.004660835361618513,-0.006908839406200344,0.004764750110099298
-0.0005776822421468948,0.0012451884653906873,29.35857541190275,0.00015760253185327611,0.034648122431900935,-0.0034580120614091684,-0.006967425965033463,0.004668707638832929
-0.0007131044140371041,0.0013284789910767616,29.35857541190275,-1.418384799539978e-05,0.034002729103808936,-0.002171178333175444,-0.006931731897665643,0.004577038301645798
-0.0008423358890104916,0.0014006010904765187,29.35857541190275,-0.0001767037591312859,0.03322500895228514,-0.0008066382923988039,-0.006846248597848138,0.00440050496861708
-0.0009552670517423279,0.0014628946579672481,29.35857541190275,-0.00030886354488596235,0.03232620748190873,0.0006251095818230795,-0.006628123059437904,0.004166718315147883
-0.0010594081144511297,0.0015260964783639593,29.35857541190275,-0.0004360281612812151,0.031318869898812,0.002119605149988683,-0.006369746709620119,0.003983695170545642
-0.0011536066287417394,0.001573693509555483,29.35857541190275,-0.0005479800224147715,0.03021236252721557,0.0036695001439484044,-0.006067961074149275,0.0036920872412784665
-0.001229008281318102,0.0016053480893568621,29.35857541190275,-0.0006251749860807299,0.02902105507218565,0.005259020943404577,-0.005650164993179975,0.003308567559240373
-0.0012862769231972676,0.0016271437241244312,29.35857541190275,-0.000674469232894393,0.027763412469927966,0.006875266850145224,-0.005143486284230575,0.002905151955447296
-0.0013250896491682608,0.0016459505514121123,29.35857541190275,-0.0007000838990178179,0.026457729183745202,0.008511813987913496,-0.00456114992319768,0.0025479136661630706
-0.0013539104882308495,0.0016632008235011974,29.35857541190275,-0.0007229793161022578,0.025118229115045645,0.01016638967537015,-0.003993857565003457,0.0022414772913069247
-0.0013733135821907315,0.0016776690288176563,29.35857541190275,-0.0007426958077198099,0.023754617079834856,0.011836824601529577,-0.0034440934073653924,0.001965465104855291
-0.0013885141115906805,0.001683226629791858,29.35857541190275,-0.0007667895874336524,0.022373703232944152,0.013517272430834334,-0.0029560812369348564,0.0016586314582834342
-0.0013923101345734766,0.001677153199936051,29.35857541190275,-0.0007754000529147784,0.020983291109862072,0.015197462345698288,-0.0024531212209721195,0.0013018491035427472
-0.001389315832389425,0.0016760104486731875,29.35857541190275,-0.0007869384295964642,0.01959247812638062,0.016874044170002905,-0.001979878251849447,0.0010547606186907608
-0.0013866349989518593,0.0016694086811764276,29.35857541190275,-0.0008109068790830678,0.018204502710709978,0.01854675373492771,-0.0015955291748080398,0.0008029698925946232
-0.0013747969050669708,0.0016442975341001151,29.35857541190275,-0.000816611516542082,0.01682378675870056,0.02020360684256598,-0.0011978139258894097,0.0004286922114291237
-0.001347390136691803,0.0016018329680052307,29.35857541190275,-0.000789907841468313,0.015462693237821174,0.021826672093618653,-0.0007308771359534464,-3.5293336966029504e-05
-0.001296651686758097,0.0015403569438992041,29.35857541190275,-0.0007134777584140625,0.014140672326096223,0.02339776704957087,-0.00013673174820094702,-0.0005877493130269934
-0.0012172340649167402,0.0014665376333689133,29.35857541190275,-0.0005809006498046578,0.012883729450258804,0.02490121433820493,0.0006101069500297421,-0.0011519704427520022
-0.0011113082702719592,0.001387596464918408,29.35857541190275,-0.0004034758405642859,0.011719458282664455,0.026328281387348593,0.0014621401831587085,-0.0016601682572562333
-0.0009842171484198464,0.0013153645887101642,29.35857541190275,-0.00020066424091029944,0.010671695573318552,0.027679761914162878,0.0023516703485126954,-0.002014972903284589
-0.0008500616140438189,0.001249121920914053,29.35857541190275,-3.743160245635942e-06,0.009754556192086719,0.028962005168974986,0.0031436896885651826,-0.0022508202644702193
-0.0007111230738792751,0.0011843672804480489,29.35857541190275,0.00018787459378441648,0.008973963848125172,0.030178749769656038,0.003835187383049183,-0.002430258766075672
-0.0005766406092894287,0.0011332317676849227,29.35857541190275,0.00035064887192437077,0.00833008200654082,0.031337549293722525,0.004360448446038843,-0.0024532618337266957
-0.000458420293644811,0.0010966633040494448,29.35857541190275,0.0004622261022606544,0.007812551555073701,0.03245249682958971,0.0046423697798919404,-0.002339654806098914
-0.00036129675797306413,0.0010659416617163093,29.35857541190275,0.0005224502126371876,0.007402693029264764,0.033533799312472586,0.004681243780563831,-0.0021935506807457972
-0.00028265467161272753,0.0010312935143896246,29.35857541190275,0.0005482165945800764,0.007080717314471869,0.034582416900525555,0.004545036605555285,-0.002109706441761876
-0.00021591861455185323,0.0010003404548776578,29.35857541190275,0.0005547606006217388,0.006831430671389579,0.035598233885159196,0.004325357741462272,-0.0020075149024594142
-0.00016482703551550133,0.0009735370246490155,29.35857541190275,0.0005351664393785059,0.006641057846355902,0.03658517262492253,0.004003397961526875,-0.001886179740454451
-0.00012166518513434876,0.000946665635726443,29.35857541190275,0.0005111069729927668,0.006497811736030977,0.03754527395511026,0.0036678878810779206,-0.0017875233233043
-8.666100927155044e-05,0.00092523098469706,29.35857541190275,0.00047919327422183723,0.006393648638828027,0.03848122226532201,0.003319218955998283,-0.0016573795466070002
-5.907698957102002e-05,0.0009150912610569988,29.35857541190275,0.0004380173921479793,0.006320779639406741,0.03940138338819904,0.0029664884158215983,-0.001448217116679011
-4.38506073750625e-05,0.0009072759170443033,29.35857541190275,0.0003805086654495468,0.0062693158409337,0.04031256697724969,0.0025655485419991083,-0.0012559534955800616
-3.0441541458216197e-05,0.0008966695508548757,29.35857541190275,0.00033373426404309406,0.006232169766517061,0.04121453971119928,0.0022209857699706003,-0.0011240198253784825
-1.999696455047635e-05,0.000886561536804685,29.35857541190275,0.00029158330189667236,0.006206950513512714,0.04210615525502906,0.001912120874591762,-0.0010115436212204917
-6.957541750030232e-06,0.0008787837468403016,29.35857541190275,0.00026441632194510703,0.006193473260362461,0.04298882789685155,0.0016830027410336787,-0.000898333780674797
-4.0280955779855177e-07,0.0008847773826126878,29.35857541190275,0.0002236681727594671,0.006189793084708547,0.043870608461578045,0.0014365907171387522,-0.0006805127680758676
-1.820733700546532e-07,0.0008883316087742489,29.35857541190275,0.0001778791243986198,0.0061895006432446205,0.044757162957271515,0.0011773990975475599,-0.0005244720269569728
5.407196598729888e-06,0.0008790160109674004,29.35857541190275,0.00015871784157457875,0.006192113204858958,0.04564083676714234,0.0010141380795278627,-0.0005138007293906912
1.9589731504099242e-05,0.0008655688037023058,29.35857541190275,0.00016650977305957232,0.006204611668910372,0.04651312917447719,0.0009586814732988817,-0.0005426297537296074
4.248872525189552e-05,0.0008530938992958158,29.35857541190275,0.00019622904632178345,0.006235650897288369,0.047372460525976254,0.0009925484213154146,-0.0005573780203832238
7.033830430009432e-05,0.0008362927684946149,29.35857541190275,0.00023982857428179354,0.006292064412064364,0.04821715385987147,0.0010652630633326008,-0.0006087741148699186
0.0001102872068561309,0.0008222979145800736,29.35857541190275,0.0003090579354837087,0.006382377167642477,0.04904644920140881,0.0012347507114179148,-0.0006253138568439451
0.0001471740317609723,0.0008111546747185932,29.35857541190275,0.00036740357675441406,0.006511107786951029,0.04986317549605815,0.0013455853539313973,-0.000612922608885777
0.00018939311498099472,0.0007859795706961414,29.35857541190275,0.0004439158047003399,0.0066793913603220125,0.050661742618765514,0.001484743318853165,-0.0007303467165651973
0.0002446762996027596,0.0007456013862582669,29.35857541190275,0.000556167823504638,0.00689642606761389,0.05142753309724272,0.0017173643938050002,-0.0009646308084431127
0.0003189722202843164,0.0006960368678664052,29.35857541190275,0.000712612126723198,0.007178250327557428,0.052148352224305056,0.0020805337829455164,-0.0012398299195612898
0.0004100062429189431,0.0006557431527290068,29.35857541190275,0.0008961241459571176,0.007542739559159057,0.05282424223460276,0.00252983693727021,-0.001380712799071949
0.0004988840177203216,0.00061990913240954,29.35857541190275,0.0010648143222521088,0.00799718468947869,0.05346206837717203,0.0028778463559608856,-0.0014554379294176565
0.0005939295647995462,0.0005769217854083835,29.35857541190275,0.001246320621910172,0.008543591480738624,0.054060483836080996,0.0032186519919609473,-0.0015816069149885961
0.0006922893910189036,0.0005310712680045813,29.35857541190275,0.001432682177856282,0.00918670095864785,0.05461448036278748,0.003527622777234932,-0.0017108649068434162
0.0007951924721184307,0.0004950680493719696,29.35857541190275,0.0016215371213145996,0.009930441890216517,0.055127550021475756,0.0038217193731879175,-0.0017271005477138106
0.0008843411572709289,0.00047333670361920585,29.35857541190275,0.0017700257788972407,0.010770208704911197,0.055611752397971344,0.003937303897631006,-0.001610639954972788
0.0009594597551998087,0.0004626467219517828,29.35857541190275,0.0018837300431674342,0.011692109161146566,0.056079744110756835,0.003904326806506093,-0.0014149779783179449
0.0010103686989709941,0.0004678666822848475,29.35857541190275,0.0019408182647686124,0.012677023388231966,0.05654500081287515,0.003657257785061216,-0.0011102550701413666
0.001032861328594845,0.00047688217170320166,29.35857541190275,0.0019428058681408762,0.013698638402014886,0.057017375239869175,0.003196780275266912,-0.0008264315172215346
0.0010370588236041922,0.00048397839410802956,29.35857541190275,0.0019201323072023883,0.014733598478114404,0.05749780552277479,0.002653706543485174,-0.0006116601285919109
0.0010260196620274138,0.0004940382292371913,29.35857541190275,0.0018785903869377183,0.015765137720930206,0.0579868138344474,0.002070858430335343,-0.0004089961494919119
0.0010025848573473966,0.0005008118340569375,29.35857541190275,0.0018279294102907652,0.01677943998061761,0.05848423886609446,0.0014812950368196694,-0.0002730549875865986
0.000978640349799608,0.0005104758446260911,29.35857541190275,0.0017913288494253244,0.017770052584191114,0.058989882705435974,0.000994291325145287,-0.0001355539846694573
0.0009462274350822391,0.0005346164571920099,29.35857541190275,0.0017417702972669898,0.018732486476632036,0.05951242885634502,0.0005188482231427911,0.0001085523085969781
0.0009016195224346905,0.0005751411544200925,29.35857541190275,0.001668929858583172,0.0196564099553905,0.06006730766215107,1.898570395729649e-05,0.00045722186365282455
0.0008363527297755975,0.000633511249271153,29.35857541190275,0.001552843919308587,0.020525396081495645,0.060671633863996696,-0.0005778007209357847,0.0009047278416346788
0.0007460294517673328,0.000697875567834674,29.35857541190275,0.0013910777767828866,0.021316587172267108,0.06133732727254961,-0.0012938667535680485,0.001325362039187655
0.0006397284766943575,0.0007562095728623573,29.35857541190275,0.001212180437744843,0.022009466136497954,0.06206436984289813,-0.002024990753582724,0.00161469625958702
0.0005274085810046255,0.0008064405102971139,29.35857541190275,0.001039108199361029,0.022593034665347445,0.06284569488447786,-0.002677900577383428,0.0017777600072508034
0.0004173986456132769,0.0008464647070381189,29.35857541190275,0.0008889337647018643,0.023065438278656397,0.06367214749314548,-0.003191099885053246,0.0018183872490325213
0.00031952578672936446,0.0008727266259284765,29.35857541190275,0.0007815102623860205,0.023433900494827718,0.06453174315962878,-0.0035006531685336773,0.0017265161027571311
0.0002431033971546945,0.0008812764339051361,29.35857541190275,0.0007344148264267249,0.023715215086769745,0.06540874468954559,-0.0035589197703881897,0.0014903296111345578
0.0001985551248172873,0.0008729176294570151,29.35857541190275,0.0007645202870438196,0.023936044347755737,0.06628584172122667,-0.003316827742475856,0.0011433714595817204
0.00018890483837545634,0.0008509687179185255,29.35857541190275,0.0008698827858365031,0.024129774329352108,0.06714778489491445,-0.0028014980296787086,0.0007359501802169566
0.00021602546846123932,0.0008308133122912845,29.35857541190275,0.001040966470292504,0.024332239482770454,0.06798867591001935,-0.00204558356895728,0.0004189100962935007
0.0002597256283405057,0.0008194171234854209,29.35857541190275,0.0012236395758370724,0.024570115031171326,0.0688137911279077,-0.0012763851029717161,0.00023914290782319481
0.0003146528411681351,0.0008093254211503122,29.35857541190275,0.001410231989758786,0.024857304265925646,0.06962816240022557,-0.0005449767858165911,0.0001039196306270799
0.00037336036441148476,0.0007987368979267117,29.35857541190275,0.0015867233431707825,0.025201310868715455,0.07043219355976409,8.781465927142231e-05,-1.1234149701484398e-05
0.00043382042673993366,0.0007943748071103998,29.35857541190275,0.001748473274712694,0.025604901264291165,0.07122874941228265,0.0006214852878443356,-4.8846948085867944e-05
0.0004817742716432412,0.000799229737848255,29.35857541190275,0.0018648999490304408,0.026062698613482753,0.07202555168476198,0.0009444320073572518,4.170049182973133e-06
