Cross-Track Error (m),Heading Error (rad),Desired Velocity (m/s),Command Steer Angle (rad),Integral of CT Error,Integral of Heading Error,Derivative of CT Error,Derivative of Heading Error
0.0003645607252755083,-0.0007236419120975057,11.14512360119791,0.00268425055704812,0.00018228036263775416,-0.00036182095604875286,0.0036456072527550833,-0.007236419120975057
0.0004619731867769467,-0.0009188799745416532,11.14512360119791,0.003130758460876041,0.0005955473186639817,-0.0011830818993683323,0.003868337402267235,-0.0076955980302900245
0.0005249723069395496,-0.00110168518624576,11.14512360119791,0.0033651690732752946,0.0010890200655222298,-0.002193364479762039,0.003737722603333219,-0.007958263949365536
0.000551398692865651,-0.0012858417756724805,11.14512360119791,0.0034041454929169767,0.00162720556542483,-0.003387127960721159,0.0032983765475099193,-0.008185457680632897
0.0005621834961771194,-0.0014841516157826362,11.14512360119791,0.0033975125420280974,0.0021839966599462154,-0.004772124656448717,0.0027967153871578288,-0.008500009376064693
0.0005666861401662704,-0.0016643040071784299,11.14512360119791,0.0033871974969698765,0.0027484314781179102,-0.0063463524679292505,0.0023291548075759587,-0.008592302138560144
0.0005680725038430005,-0.0018204919626327865,11.14512360119791,0.0033852649623947674,0.0033158108001225457,-0.008088750452834859,0.0019182754214415133,-0.008449955890225179
0.000569230904041498,-0.001954786088409932,11.14512360119791,0.003404789620158199,0.003884462504064795,-0.009976389478356218,0.0015800289829839425,-0.008134455962703742
0.000569435300917304,-0.002096769931587694,11.14512360119791,0.003450268732085573,0.004453795606544196,-0.012002167488355031,0.0012946091394941887,-0.007946226180191807
0.0005810142504443952,-0.0022784463482761197,11.14512360119791,0.003606734090038824,0.005029020382225045,-0.014189775628286938,0.0011644888371051655,-0.008153061571869891
0.000612800325918225,-0.002504053170771847,11.14512360119791,0.003918343450434989,0.005625927670406356,-0.01658102538781092,0.0012417279164844968,-0.008721657854218341
0.0006720813888886619,-0.0027338174738984478,11.14512360119791,0.004395376849580204,0.006268368527809799,-0.01919996071014607,0.0015548779586731058,-0.009224668272784103
0.0007414081829853824,-0.002922979809747872,11.14512360119791,0.004897102042891304,0.006975113313746822,-0.02202835935196923,0.0019024164579754554,-0.00926711345818176
0.0008034434748936916,-0.003064583433634027,11.14512360119791,0.005315663430045102,0.007747539142686359,-0.02502214097366018,0.0021204797556918192,-0.008869489410204667
0.0008424131979466913,-0.0031516176743284774,11.14512360119791,0.005562754699837302,0.00857046747910655,-0.02813024152764143,0.002089208191502395,-0.008048075341935182
0.0008473396062198201,-0.0031859206929638617,11.14512360119791,0.005590038590698548,0.009415343881189805,-0.0312990107112876,0.0017541376864394945,-0.006896634540086826
0.0008147196130649932,-0.003188749633370236,11.14512360119791,0.005405927374717314,0.010246373490832211,-0.03448634587445465,0.0011386581693157048,-0.005668418627401713
0.0007551923330382561,-0.003158106178682729,11.14512360119791,0.005088992318802929,0.011031329463883835,-0.03765977378048113,0.0003904723201061481,-0.004359220197987703
0.0006700934874080515,-0.0031153125768419443,11.14512360119791,0.004663854282448875,0.011743972374106989,-0.04079648315824347,-0.0004541485165513748,-0.0031776019634373502
0.0005807383744633691,-0.003113596936218599,11.14512360119791,0.004287498746029333,0.012369388305042698,-0.04391093791477374,-0.001183895267584601,-0.0025842594189637827
0.0005107518432378668,-0.003150694407374033,11.14512360119791,0.004089525760753406,0.012915133413893316,-0.047043083586570056,-0.00160488277552833,-0.0024516438078379483
0.00046968612171553866,-0.0032036292759052287,11.14512360119791,0.004093695167508593,0.013405352396370019,-0.05022024542820969,-0.0016864106483625266,-0.002487116465787376
0.0004571059476986182,-0.0032421686976640274,11.14512360119791,0.0042597961180684965,0.013868748431077098,-0.053443144414994315,-0.001494155748814071,-0.0023852718516332947
0.0004561329377832146,-0.003283280848721759,11.14512360119791,0.00447845298590888,0.014325367873818015,-0.05670586918818721,-0.0012313366118969994,-0.0023253328882248013
0.00046826200738285013,-0.0033688240484934795,11.14512360119791,0.004775835459286441,0.014787565346401048,-0.06003192163679483,-0.0008971929588281316,-0.002680210542835933
0.000495482791462547,-0.0034977525693404843,11.14512360119791,0.005159817139709453,0.015269437745823747,-0.06346520994571181,-0.00048660529286213627,-0.0033649769972930793
0.0005383199897406445,-0.003625813698796776,11.14512360119791,0.005607872602792692,0.015786339136425343,-0.06702699307978044,-8.702527995406916e-06,-0.0039173550837515335
0.0005774394684975598,-0.0037162839481217347,11.14512360119791,0.005983670300353337,0.016344218865544446,-0.0706980419032397,0.00034851137488480617,-0.004027565516932697
0.000598139566951475,-0.003800877098001365,11.14512360119791,0.006224585267324993,0.016932008383268964,-0.07445662242630124,0.00047332838357770754,-0.004064309512759755
0.0006043447390265677,-0.003909594254258408,11.14512360119791,0.0063846690001823315,0.017533250536257986,-0.07831185810243113,0.00044367933270078553,-0.004313681930958378
0.0006045861206623976,-0.004015978891726668,11.14512360119791,0.006511558944731207,0.018137715966102468,-0.08227464467542367,0.0003652047416263682,-0.004496509193222852
0.0005941229817743723,-0.0040985943516753665,11.14512360119791,0.006569182428292202,0.01873707051732085,-0.08633193129712469,0.00020368443507588971,-0.00443001170307959
0.0005731128404363959,-0.004169000887579877,11.14512360119791,0.006569111692808574,0.019320688428426235,-0.09046572891675231,-2.435038346496651e-05,-0.004264614447106121
0.0005439303963246842,-0.004258346732824769,11.14512360119791,0.006544612803060318,0.019879210046806775,-0.09467940272695463,-0.00028521798748689715,-0.004301464958949485
0.000522426985226978,-0.004373595731506974,11.14512360119791,0.006594893467744951,0.020412388737582606,-0.0989953739591205,-0.00042884572701388124,-0.004567098590796894
0.0005109928733077649,-0.004516216409637508,11.14512360119791,0.0067267551063548625,0.020929098666849978,-0.10344028002969274,-0.00045482024864056727,-0.005033268648202312
0.0005214780829889209,-0.00465665781660185,11.14512360119791,0.00698828854826309,0.021445334144998322,-0.10802671714281242,-0.00027680556996813744,-0.005394868957295917
0.0005367942262777228,-0.004759771926580392,11.14512360119791,0.007247324006631411,0.021974470299631645,-0.11273493201440354,-8.723961825754908e-05,-0.005351384692137944
0.0005480110988202508,-0.004851725555861108,11.14512360119791,0.007463623095316669,0.02251687296218063,-0.1175406807556243,3.059369908498624e-05,-0.005214347741573922
0.000552434009009048,-0.004961207832054448,11.14512360119791,0.007640578832742379,0.02306709551609528,-0.12244714744958207,6.523948278587319e-05,-0.005261577935772663
0.0005577029962801955,-0.005107581034402564,11.14512360119791,0.007838992352105386,0.023622164018739903,-0.12748154188281058,0.00010127764292614563,-0.005635592877887775
0.0005714732894366192,-0.005288366433396696,11.14512360119791,0.008103306678864775,0.02418675216159831,-0.1326795156167102,0.00020804800927069815,-0.006254443254582107
0.0005979624572964636,-0.005498733648793497,11.14512360119791,0.008452009621470441,0.02477147003496485,-0.1380730656578053,0.00041103171540188407,-0.007029700984629008
0.0006388924272767466,-0.005731900746544838,11.14512360119791,0.008886411138453905,0.025389897477251455,-0.14368838285547447,0.0007083893124222964,-0.007871274421526834
0.0006920606652751424,-0.005971515731015842,11.14512360119791,0.009380095601227652,0.0260553740235274,-0.1495400910942548,0.0010629388737854765,-0.008618451658258352
0.0007500282064046152,-0.006189170732258553,11.14512360119791,0.009872035461634787,0.02677641845936728,-0.155620434325892,0.0013966549070015064,-0.009030142277145117
0.0007967007505021814,-0.006407146467096503,11.14512360119791,0.010279971376490716,0.027549782937820677,-0.16191859292556954,0.00156701350661547,-0.009369895816191
0.0008391842301353558,-0.0066555681981501635,11.14512360119791,0.010672632249501109,0.028367725428139444,-0.16844995025819287,0.0016683154111687888,-0.00992465776828046
0.000881271146312577,-0.006910409100253645,11.14512360119791,0.011065497897544883,0.02922795311636341,-0.17523293890739478,0.001747593665294657,-0.010436910011352035
0.0009201013888143868,-0.007157976570349334,11.14512360119791,0.01143639438275007,0.030128639383926892,-0.18226713174269626,0.0017828515670757178,-0.010789903373794287
0.000954052573185026,-0.007397069318140659,11.14512360119791,0.011778054215256866,0.0310657163649266,-0.18954465468694126,0.0017673438673404883,-0.011001673194843735
0.0009814023336725559,-0.007630646230821547,11.14512360119791,0.012084953008793904,0.03203344381835539,-0.19705851246142236,0.0016946428049833984,-0.011124795456516585
0.0010046727320770148,-0.00783736573420235,11.14512360119791,0.012364937677011969,0.03302648135123018,-0.2047925184439343,0.0015980750077542244,-0.010981373586066327
0.0010144018710774106,-0.007988159725188737,11.14512360119791,0.012548275026350881,0.03403601865280739,-0.21270528117362986,0.0013959626336206908,-0.010355614670294142
0.0010018977869734548,-0.008089745868369747,11.14512360119791,0.012592679544611496,0.035044168481832824,-0.2207442339704091,0.0010284777538355123,-0.0093962860318862
0.0009650996125049006,-0.008187771789020637,11.14512360119791,0.012518186379972828,0.036027667181572,-0.2288829927991043,0.0005069529397876537,-0.008579015122914984
0.0009231721535626186,-0.008275247769220506,11.14512360119791,0.012443769991312284,0.03697180306460576,-0.23711450257822486,3.3620960350970723e-05,-0.00781443037511107
0.0008719620172240837,-0.008326050482964753,11.14512360119791,0.012326754005327518,0.03786937014999912,-0.2454151517043175,-0.0004380386355177044,-0.006855467704584027
0.000814082321255574,-0.00839104555091108,11.14512360119791,0.012206349112421234,0.038712392319238946,-0.2537736997212554,-0.000884574301500938,-0.006199883285080829
0.0007673583982921737,-0.008497698683614274,11.14512360119791,0.012199321828573738,0.03950311267901282,-0.2622180718385181,-0.0011485055463498618,-0.006042205712367895
0.0007419733147185363,-0.008637369159784747,11.14512360119791,0.012349174269433088,0.04025777853551817,-0.2707856057602176,-0.0011704598431374988,-0.006213354457123481
0.0007434572067760802,-0.008766829722604008,11.14512360119791,0.012651356976660403,0.04100049379626548,-0.279487705201412,-0.0009441590347711909,-0.006260567854185222
0.0007521308128362937,-0.008878836477172136,11.14512360119791,0.012969487123232119,0.04174828780607167,-0.28831053830130005,-0.0006936427915381245,-0.006140526013134527
0.0007650695100749997,-0.009016416300661412,11.14512360119791,0.013306955652058899,0.042506887967527315,-0.2972581646902168,-0.00044990139999750176,-0.00627479240610348
0.0007858258069736782,-0.009147293360705078,11.14512360119791,0.013670123035734403,0.04328233562605165,-0.30634001952090006,-0.0001794075372826966,-0.006323712514481628
0.0007983556569351705,-0.00922424957158885,11.14512360119791,0.013938943763564757,0.044074426358006076,-0.31552579098704703,-3.288025812682171e-05,-0.005873548519882892
0.0007876055632343253,-0.009243065024819863,11.14512360119791,0.014030192647896232,0.04486740696809082,-0.3247594482852514,-0.00012463015392962838,-0.004976680182004307
0.0007444959838802616,-0.009215384279075423,11.14512360119791,0.013910816139925715,0.04563345774164811,-0.333988672937199,-0.0004938753927975476,-0.003820186096690427
0.0006696701698942124,-0.00917286972929876,11.14512360119791,0.01361730608870697,0.04634054081853535,-0.3431827999413861,-0.001084314539434804,-0.0027391108993225113
0.0005781460450645484,-0.009125743899926597,11.14512360119791,0.013256661388029455,0.04696444892601473,-0.3523321067559988,-0.0017192039398072395,-0.0018126741051532973
0.00047826908053723034,-0.00908612399759523,11.14512360119791,0.012885326470406418,0.04749265648881562,-0.3614380407047597,-0.002314593810090633,-0.00112291606484027
0.00038784448471312156,-0.009076382008124106,11.14512360119791,0.012615926124618624,0.047925713271440795,-0.3705192937076194,-0.0027158003521115114,-0.0008301859669500073
0.00031997742689061166,-0.009072801967807465,11.14512360119791,0.012500598136769661,0.04827962422724266,-0.37959388569558516,-0.0028389917228413258,-0.0006466972428078063
0.00027037428864778014,-0.009073941269172714,11.14512360119791,0.012494394170287863,0.04857480008501186,-0.38866725731407525,-0.002773749029986825,-0.0005394732110722908
0.0002428773409652343,-0.009068545693085461,11.14512360119791,0.012602503780458775,0.04883142589981837,-0.39773850079520434,-0.002519403276194182,-0.00039233648099321414
0.00022251118708700897,-0.00902912639353648,11.14512360119791,0.01271043773210658,0.04906412016384449,-0.4067873368385153,-0.002246476806688197,3.735469326902218e-05
0.00019713198279264037,-0.008978275812390635,11.14512360119791,0.012756851597623214,0.049273941748784314,-0.41579103794147887,-0.002068746517239148,0.000492840941273244
0.00016548926844233618,-0.008940728939639264,11.14512360119791,0.012753522461040319,0.0494552523744018,-0.4247505403174938,-0.00198027182638025,0.0007445687042360229
0.00013179183119370612,-0.00892062251315906,11.14512360119791,0.012733768609391424,0.04960389292421982,-0.433681216043893,-0.0019265627420259317,0.0007919782714676933
9.89537864035144e-05,-0.00892444454191299,11.14512360119791,0.012720675610976126,0.04971926573301843,-0.442603749571429,-0.0018748062870229596,0.0006132365061651095
7.542050948134587e-05,-0.008931712089117028,11.14512360119791,0.012754668899012993,0.04980645288096086,-0.451531827886944,-0.0017478712977657713,0.00043567034864384105
5.391025428893811e-05,-0.00890665705445759,11.14512360119791,0.012769986680787368,0.049871118262846,-0.4604510124587313,-0.0016256242908302466,0.000584230600339852
2.4796813398256408e-05,-0.008855697899684323,11.14512360119791,0.012713189760629372,0.0499104717966896,-0.4693321899358023,-0.0015947238824127624,0.0009412718982168501
-5.661340836940169e-06,-0.008821888045734028,11.14512360119791,0.0126492055560804,0.04992003953297026,-0.47817098290851145,-0.0015816663968395014,0.0010774938617255602
-4.225843848996518e-05,-0.008786268501670413,11.14512360119791,0.012541184121153503,0.04989607964330681,-0.4869750611822137,-0.0016267915760780044,0.001205399923808317
-8.402066103800725e-05,-0.008747521917942258,11.14512360119791,0.012397916764060409,0.04983294009354282,-0.49574195639202,-0.0017106678581369312,0.001338477971553671
-0.00011953081875908797,-0.00875172137127933,11.14512360119791,0.012312746201082176,0.04973116435364427,-0.5044915780366308,-0.001722456954121859,0.0010569414918432524
-0.00013884513639918856,-0.008753254801444399,11.14512360119791,0.012317396353878102,0.04960197637606513,-0.5132440661229927,-0.001584867668282435,0.0008508300372802223
-0.00015256306253859278,-0.008758294814701806,11.14512360119791,0.01234247905943565,0.04945627227659624,-0.5219998409310658,-0.0014214183298620303,0.0006503153645255737
-0.00015303521943991344,-0.00881442179563141,11.14512360119791,0.012456287146359562,0.04930347313560699,-0.5307861992362324,-0.0011672709689900306,2.1830926160878485e-05
-0.00013380041497560442,-0.008868458435561166,11.14512360119791,0.012665734168617394,0.04916005531839923,-0.5396276393518287,-0.0007801780249526701,-0.0004733805143206938
-0.00011145816547835246,-0.008893108328873467,11.14512360119791,0.01285089368748878,0.04903742602817225,-0.548508422734046,-0.0004352161158953486,-0.0006114012691014832
-9.283710651917965e-05,-0.00892553471496349,11.14512360119791,0.012993627467709176,0.04893527839217349,-0.5574177442559645,-0.00018680355883098686,-0.0007950227300832417
-7.642644041825962e-05,-0.008952590701428953,11.14512360119791,0.013103577133845216,0.048850646618704766,-0.5663568069641607,-3.651401762443541e-06,-0.0008964366561177697
-6.947298750606573e-05,-0.008975556526465311,11.14512360119791,0.013143102067297584,0.0487776969047426,-0.5753208805781078,6.022569775976334e-05,-0.0009422284007905247
-6.663816625677862e-05,-0.009033783412917273,11.14512360119791,0.013171739117958603,0.04870964132786118,-0.5843255505477991,7.504667316059831e-05,-0.0013002494774828105
-5.6618527907650874e-05,-0.00908805197315754,11.14512360119791,0.01324053421749067,0.04864801298077896,-0.5933864682408365,0.00015248944485074192,-0.001557191029215639
-4.9885666039534134e-05,-0.009113399397474353,11.14512360119791,0.013270753776445739,0.04859476088380537,-0.6024871939261525,0.00018597192640621373,-0.0015044965176929117
-4.6980481525400324e-05,-0.009156143622710111,11.14512360119791,0.013285327556731204,0.0485463278100229,-0.6116219654362447,0.00017856961718811857,-0.0016195355620738177
-3.8944482804728426e-05,-0.009194918222962478,11.14512360119791,0.01332963253001637,0.04850336532785784,-0.620797496359081,0.00021915694788729605,-0.0016775709167182779
-3.414228508612425e-05,-0.009225311534297731,11.14512360119791,0.01334859783906424,0.048466821943912414,-0.6300076112377111,0.00022296657298600744,-0.0016488608530899796
-2.658357823017032e-05,-0.009281788674692315,11.14512360119791,0.013397590892219653,0.04843645901225427,-0.6392611613422061,0.000251142712951769,-0.0018624965197516562
-1.109947510353196e-05,-0.009340290247318528,11.14512360119791,0.01349390711365855,0.048417617485587414,-0.6485722008032115,0.00034624497538452337,-0.0020556932673078347
-3.2646326795271506e-06,-0.009394418920650516,11.14512360119791,0.013537452151695844,0.04841043543169588,-0.6579395553871961,0.00035451718371465367,-0.0021740097035426635
2.0599917742799233e-05,-0.009443017004268306,11.14512360119791,0.013674535114441362,0.04841910307422752,-0.6673582733496555,0.0005070099723331383,-0.0022205359721511803
4.255974064869999e-05,-0.009474125598890382,11.14512360119791,0.013783361372187596,0.04845068290342327,-0.6768168446512348,0.0006144610946898472,-0.0020996075646880176
5.7744070044184084e-05,-0.009512905410407058,11.14512360119791,0.013850802977622449,0.04850083480876971,-0.6863103601558835,0.0006407802537960939,-0.002070404475805432
7.351709400563948e-05,-0.009557905152033364,11.14512360119791,0.013925442371980179,0.04856646539079462,-0.6958457654371037,0.0006676658800282167,-0.0021030558586254073
8.507498510539925e-05,-0.00961984539841687,11.14512360119791,0.01398405810601849,0.04864576143035014,-0.7054346407123289,0.0006513438209299933,-0.002283775215089035
0.00010468363348840491,-0.009713121267546754,11.14512360119791,0.014109746598851591,0.04874064073964704,-0.7151011240453107,0.0007111781115155004,-0.0027165058044354186
0.00013412726347239142,-0.009803424181017206,11.14512360119791,0.014291224290087647,0.048860046188127434,-0.7248593967695927,0.0008495423638216502,-0.0030435312351785463
0.00016670595819443608,-0.009862328548205568,11.14512360119791,0.01446969203691112,0.04901046279896085,-0.734692273134204,0.0009912500678726651,-0.0030256561668584605
0.0001893915285709456,-0.009899299305938136,11.14512360119791,0.014572496668526691,0.049188511542343535,-0.7445730870612759,0.001017255240773176,-0.0028116346613620887
0.00020267487691945254,-0.00993389228204311,11.14512360119791,0.014620004859463676,0.049384544745088736,-0.7544896828552665,0.0009530574547099342,-0.002614909960250568
0.00020832223436414608,-0.00993737410538209,11.14512360119791,0.014614050427478986,0.04959004330073054,-0.7644253160489791,0.0008311138942598872,-0.0021711247251048273
0.00019562175041219093,-0.009915233832639814,11.14512360119791,0.014496852292294055,0.049792015293118705,-0.7743516200179901,0.0005645433321039517,-0.0015750995683377943
0.00017200571487558942,-0.009896453868958766,11.14512360119791,0.014335717098116612,0.04997582902576259,-0.7842574638687894,0.00024720785775231204,-0.0011179908860850353
