Cross-Track Error (m),Heading Error (rad),Desired Velocity (m/s),Command Steer Angle (rad),Integral of CT Error,Integral of Heading Error,Derivative of CT Error,Derivative of Heading Error
-4.737460849482308e-05,5.3591858142401556e-05,26.16159742223055,-0.00015536595215933814,-2.368730424741154e-05,2.6795929071200778e-05,-0.00047374608494823084,0.0005359185814240155
-7.126687389765496e-05,5.6702336371508847e-05,26.16159742223055,-0.0002047707375235838,-8.300804544365057e-05,8.194302632815598e-05,-0.0006048128458924787,0.0004667559141569881
-8.945811293986353e-05,5.930025897970565e-05,26.16159742223055,-0.00023670981484308522,-0.0001633705388624098,0.00013994432400376322,-0.0006602217742957424,0.0004055086807484158
-0.0001050257112331758,5.9857860488748804e-05,26.16159742223055,-0.00026042954858063123,-0.0002606124509489295,0.00019952338373799045,-0.0006817050725448099,0.00033684893433091434
-0.00011141078871041766,6.245399890407531e-05,26.16159742223055,-0.0002622871004055476,-0.0003688307009207262,0.0002606793134344025,-0.0006158048546024978,0.0002992049318646253
-0.00011359940065344314,8.055317326590163e-05,26.16159742223055,-0.00026401458898429165,-0.0004813357956026566,0.000332182899519391,-0.0005237368077931842,0.0004093419839058417
-0.00012361719403972997,0.00011693713551939769,26.16159742223055,-0.0002981384074303205,-0.0005999440929492432,0.00043092805391204065,-0.0005195827826152129,0.0006656794618638347
-0.00015537134596203453,0.00015448093688654542,26.16159742223055,-0.0003889660760263353,-0.0007394383629501255,0.0005666370901150122,-0.0007137872941606701,0.000885954117589935
-0.00019529933471462056,0.0001889812052645333,26.16159742223055,-0.0004947139102213917,-0.0009147737032884531,0.0007383681611905516,-0.0009469895020640577,0.0010385103541916548
-0.0002478162678012641,0.0002253189268974167,26.16159742223055,-0.0006283071984421014,-0.0011363315045463955,0.0009455182272715266,-0.0012522362570218978,0.0011800332137284757
-0.0003057414800713512,0.0002630587026337812,26.16159742223055,-0.0007697471445134638,-0.001413110378482703,0.0011897070420371254,-0.0015511497763823442,0.0013085705906538847
-0.00036978042595554823,0.000310012568121348,26.16159742223055,-0.0009253652483154312,-0.0017508713314961528,0.00147624267741469,-0.0018512947796237092,0.0014975019876946947
-0.0004491003414498541,0.00035234478926631944,26.16159742223055,-0.001111954413842889,-0.002160311715198854,0.0018074213561085238,-0.002235785869640361,0.001610067273068127
-0.0005294164576029686,0.0003761699665132102,26.16159742223055,-0.0012845236569258376,-0.0026495701147252653,0.0021716787339982886,-0.0025594258583704274,0.0015339202893002017
-0.0006018014858005104,0.0003791075395125316,26.16159742223055,-0.001421396693331557,-0.0032151790864270047,0.0025493174870111594,-0.0027521214131898198,0.0012817309003303591
-0.0006485938450205655,0.0003685494058152475,26.16159742223055,-0.001485350267052792,-0.0038403767518375427,0.002923145959675049,-0.0026771207855194453,0.0009527058848404385
-0.0006723774470852354,0.0003532528987314601,26.16159742223055,-0.0014946722778760649,-0.004500862397890443,0.003284047111948403,-0.0024065861160129085,0.0006404274777441097
-0.000668744523163771,0.000342081770170135,26.16159742223055,-0.0014476338492750774,-0.005171423383014947,0.0036317144463992005,-0.0019359984229063388,0.00042243040396040707
-0.0006551433734041798,0.0003368749348715632,26.16159742223055,-0.0013943314759535075,-0.005833367331298922,0.00397119279892005,-0.0014603518936543581,0.00029829000961695317
-0.0006326408446330023,0.00033203844040339316,26.16159742223055,-0.0013340918727575886,-0.006477259440317513,0.004305649486557529,-0.0009902649241610422,0.00020008733088505205
-0.0006100200850523672,0.00032734441182636124,26.16159742223055,-0.0012882379604599384,-0.007098589905160198,0.0046353409126724055,-0.0006045734872168976,0.00012103482911475231
-0.000585157351430593,0.0003264767271352391,26.16159742223055,-0.0012502753489006758,-0.007696178623401678,0.004962251482153205,-0.0002686261838886047,9.114045390186875e-05
-0.0005673639230081775,0.0003373567583617418,26.16159742223055,-0.0012459168490631925,-0.008272439260621062,0.0052941682249016955,-5.802661934144483e-05,0.00017347883706973554
-0.0005664109745501293,0.00035190766887145577,26.16159742223055,-0.0012921290471897583,-0.008839326709400215,0.005638800438518294,-3.881315711529003e-05,0.00027421823496354684
-0.0005822289214995717,0.00035552128552292423,26.16159742223055,-0.0013760680289415612,-0.009413646657425065,0.005992514915715484,-0.00017555573718016788,0.00025721143452897896
-0.0006048775570322434,0.00033770907722500965,26.16159742223055,-0.0014631026487799922,-0.010007199896690973,0.006339130097089451,-0.0003495331988989713,4.8516552815395614e-05
-0.0006144395900601679,0.0003097270194747279,26.16159742223055,-0.00150749626357275,-0.010616858470237179,0.00666284814543932,-0.00037290928117119856,-0.00021468698178996477
-0.0006140275353244936,0.0002844937836631509,26.16159742223055,-0.0015278472891107823,-0.01123109203292951,0.0069599585470082595,-0.00030136164154303234,-0.00040504603793339855
-0.0006022202476350723,0.00026775987671211004,26.16159742223055,-0.0015259570685332872,-0.011839215924409292,0.00723608537719589,-0.00013922963681319646,-0.0004835277305913338
-0.0005900417682479569,0.00026391143183108036,26.16159742223055,-0.0015342979785143626,-0.012435346932350808,0.007501921031467485,-3.2017084188394715e-06,-0.00043059946031136144
-0.0005893555228222853,0.0002536426606638371,26.16159742223055,-0.0015724165507582269,-0.013025045577885929,0.007760698077714944,3.6190151634186753e-06,-0.00044566111450241615
-0.0005858932074753534,0.00022699007104215007,26.16159742223055,-0.0015954761238176816,-0.013612669943034748,0.008001014443567937,3.44366064694509e-05,-0.0006069280902445862
-0.000572883939365904,0.00019512148868396323,26.16159742223055,-0.0015924831934569497,-0.014192058516455377,0.008212070223430993,0.00014644147901545418,-0.0007862919134563599
-0.0005554766085397195,0.00015176185494341515,26.16159742223055,-0.0015754705214362668,-0.014756238790408188,0.008385511895244682,0.0002780642176143213,-0.0010375082359238223
-0.0005226558816786111,8.713904656812823e-05,26.16159742223055,-0.0015119169189073748,-0.015295305035517353,0.008504962346000454,0.000525877331330885,-0.0014363504509857356
-0.0004643783048007472,9.485523674250497e-06,26.16159742223055,-0.0013832858914155318,-0.015788822128757034,0.008553274631121642,0.0009600594245240323,-0.0018811369407508538
-0.0003837190837025475,-7.975066371113115e-05,26.16159742223055,-0.0012026429290828635,-0.016212870823008683,0.008518142061103202,0.001518768811866934,-0.002350350109572352
-0.0002732617832661986,-0.00017507090450319396,26.16159742223055,-0.0009565145837645,-0.016541361256493057,0.00839073127699604,0.002246786304585208,-0.0027895613695779493
-0.00013959077626810008,-0.00025880357138063914,26.16159742223055,-0.0006740672209256216,-0.016747787536260206,0.008173794039054123,0.0030534706764615196,-0.003043574455813278
-1.909964984409245e-06,-0.0003321737223922483,26.16159742223055,-0.0004044281425070154,-0.01681853790688646,0.007878305392167679,0.003749937928774796,-0.0031571986548618557
0.00013074279878162132,-0.00039058488494969623,26.16159742223055,-0.00016871668841244105,-0.016754121489987853,0.007516926088496707,0.004274065248688746,-0.0031141731045001356
0.00025218074610662507,-0.0004404317311381689,26.16159742223055,2.6153351354381982e-05,-0.01656265971754373,0.007101417780452774,0.004600943815518098,-0.003001112959940771
0.00035657722324523416,-0.0005015445994018819,26.16159742223055,0.0001812933733374754,-0.0162582807328678,0.006630429615182749,0.004713467459411258,-0.003011027587803479
0.00044978658890114284,-0.0005706920221868472,26.16159742223055,0.00031610446741389345,-0.015855098826794613,0.006094311304388384,0.004703831245481107,-0.00309218096079344
0.0005382405449427961,-0.0006405167067846662,26.16159742223055,0.00044663522090235936,-0.015361085259872644,0.005488706939902627,0.004652716073954117,-0.00316473610062935
0.0006201482306383765,-0.0007166979397297268,26.16159742223055,0.0005722540231312895,-0.014781890872082058,0.004810099616645431,0.004551383021376825,-0.0032818862000154733
0.0007099138653343514,-0.0007967001221711456,26.16159742223055,0.0007295266136031076,-0.014116859824095693,0.004053400585694995,0.004539910060180809,-0.003412472185843739
0.0008073003612962641,-0.0008611764348174233,26.16159742223055,0.0009056555045183798,-0.013358252710780385,0.00322446230720071,0.004599803648892595,-0.003378170994292856
0.0009011970747658271,-0.0009011625758281738,26.16159742223055,0.0010660384486922733,-0.012504003992749339,0.0023432928018779116,0.004617082198817245,-0.0031274684590646166
0.0009747124732787651,-0.000928405031864088,26.16159742223055,0.001174855621787809,-0.011566049218727044,0.0014285089980317807,0.004445934512786272,-0.0028064965213793597
0.0010308315544534687,-0.0009566799457898512,26.16159742223055,0.0012515669881821565,-0.010563277204860926,0.00048596650920481113,0.004147756248413344,-0.0025532690986355046
0.0010797035998145385,-0.0009716275151294695,26.16159742223055,0.0013178576774040616,-0.009508009627726922,-0.0004781872212548492,0.0038379100701660977,-0.0022249253474255796
0.0011070790955651432,-0.0009615722128906157,26.16159742223055,0.001331545390529516,-0.00841461828003708,-0.0014447870852648918,0.003388976382414122,-0.0017289816275404385
0.0011091783199123145,-0.000935787772526453,26.16159742223055,0.0012908557117916127,-0.007306489572298352,-0.002393467077973426,0.0027918827160403835,-0.0011802173283134245
0.0010851040306726234,-0.0009002069412096247,26.16159742223055,0.0011996919739094255,-0.006209348397005883,-0.003311464434841465,0.002065410501854031,-0.000642170256648909
0.0010370094585575673,-0.000865499360291011,26.16159742223055,0.0010713533942000738,-0.005148291652390787,-0.004194317585591783,0.0012526579368346059,-0.00020988856527080096
0.0009723024297504661,-0.0008434517189996882,26.16159742223055,0.0009317121942776723,-0.004143635708236771,-0.0050487931252371325,0.0004366562318910298,2.8706094699552513e-05
0.0009087245277471516,-0.0008276650443361788,26.16159742223055,0.0008214781886480098,-0.003203122229487962,-0.005884351506905066,-0.0002207167375738345,0.00016700202896790075
0.000853671535259816,-0.0007994618010842558,26.16159742223055,0.0007446731817027261,-0.002321924197984478,-0.006697914929615283,-0.0006810681715361887,0.0003930311441730377
0.0007952020714336374,-0.0007685744209879886,26.16159742223055,0.0006696358243666019,-0.0014974873946377513,-0.0074819330406514055,-0.001088778175131233,0.0006023653006530965
0.0007415956920667081,-0.0007517797297440509,26.16159742223055,0.0006236954723053472,-0.0007290885128875786,-0.008242110116017425,-0.0013781492284430925,0.0006455233482065116
0.0007029619190588618,-0.0007389280402980702,26.16159742223055,0.0006237166530181495,-6.8097073247936615e-06,-0.008987464001038486,-0.0014787927597065878,0.0006449890071324249
0.0006803261311633066,-0.0007144465091899477,26.16159742223055,0.0006591040876883247,0.0006848343177862905,-0.009714151275782495,-0.0014157012388104364,0.0007502776522730981
0.0006564889804577308,-0.0006838577144314684,26.16159742223055,0.0006844634105585999,0.0013532418735968093,-0.010413303387593203,-0.0013750023836228641,0.0008919434860278012
0.0006321760213707021,-0.0006654783369555162,26.16159742223055,0.0007114822661410376,0.0019975743745110257,-0.011087971413286695,-0.0013460288510280588,0.000896857192895039
0.0006214997628606422,-0.0006436390865118824,26.16159742223055,0.0007685450502416707,0.0026244122666266977,-0.011742530125020394,-0.0011983532282053193,0.0009323308891289751
0.0006066787703565479,-0.0006032333371797094,26.16159742223055,0.0007998485460950892,0.0032385015332352927,-0.01236596633686619,-0.001115207118568846,0.0011301411759434613
0.0005810610610448972,-0.0005562607758244908,26.16159742223055,0.0007964210111436975,0.0038323714489360153,-0.01294571339336829,-0.0011453304543895162,0.0013516842471830003
0.0005424878388046504,-0.0005154427537945594,26.16159742223055,0.0007622500640881759,0.004394145898860789,-0.013481565158177816,-0.0012877542103209385,0.0014769964025127405
0.0004931009800929918,-0.0004889649789570072,26.16159742223055,0.0007097811684352072,0.0049119403083096105,-0.013983769024553599,-0.0015025885240049371,0.0014491586460336258
0.000445715192996191,-0.00047966308011737624,26.16159742223055,0.0006746730095134317,0.005381348394854202,-0.01446808305409079,-0.0016601704932476828,0.0012702379725696112
0.0004092030630999954,-0.00048766015165213616,26.16159742223055,0.0006776883980510531,0.005808807522902295,-0.014951744669975547,-0.001690249766258976,0.0009665849636045938
0.00039498928826663907,-0.0005060157150289513,26.16159742223055,0.0007407782767129823,0.006210903698585612,-0.01544858260331609,-0.0015121477617878558,0.0006239734849781667
0.0003989533266044898,-0.0005344083400471433,26.16159742223055,0.000847785666164844,0.006607875006021177,-0.015968794630854138,-0.0012011750929368753,0.00025240898754402667
0.00042958588812237774,-0.0005717196132728475,26.16159742223055,0.0010164915922993899,0.007022144613384611,-0.016521858607514133,-0.0007043017895130071,-0.00013267694860674323
0.00048362221030877155,-0.0006043455440343237,26.16159742223055,0.0012273799030553807,0.007478748662600185,-0.01710989118616772,-8.500762608888018e-05,-0.0004051532376007557
0.0005501709532419409,-0.0006273539412902096,26.16159742223055,0.0014478539378253935,0.007995645244375542,-0.017725740928829985,0.0005354368780470011,-0.0005406562603632171
0.0006154276955276501,-0.0006508061117367347,26.16159742223055,0.0016487955623635646,0.008578444568760337,-0.018364820955343458,0.0010313278300903574,-0.0006555566716292243
0.0006867088062984849,-0.0006697934156365548,26.16159742223055,0.001850564487847504,0.009229512819673404,-0.019025120719030102,0.0014918237770815172,-0.0007089764031495477
0.0007454650626921345,-0.0006840984636227176,26.16159742223055,0.0020076246989348297,0.009945599754168715,-0.01970206665865974,0.001754730875736238,-0.0007101174933602009
0.0008006808655154552,-0.0006961083868795015,26.16159742223055,0.0021499000319074044,0.01071867271827251,-0.020392170083910848,0.0019376507421780189,-0.0006901863423563811
0.0008397826098330836,-0.0007063680057699528,26.16159742223055,0.002248232917948929,0.01153890445594678,-0.021093408280235575,0.0019408210101240916,-0.0006579671791138693
0.0008700349158002448,-0.0007285860607586514,26.16159742223055,0.0023329451932448497,0.012393813218763443,-0.021810885313499877,0.0018629654261666305,-0.0007403191009904254
0.0009062832097201907,-0.0007462744466408822,26.16159742223055,0.0024356414082299317,0.013281972281523662,-0.022548315567199644,0.00185377438431766,-0.0007665191361033548
0.0009348717407165711,-0.0007520824705586904,26.16159742223055,0.002516030973828349,0.014202549756742042,-0.02329749402579943,0.001776620232590638,-0.0006799522378828209
0.0009546897342526046,-0.0007616422903540254,26.16159742223055,0.0025808845292561774,0.01514733049422663,-0.02405435640625579,0.0016337619497199171,-0.0006432320109526265
0.0009766123547066473,-0.0007712877258150286,26.16159742223055,0.002657606132752634,0.016112981538706255,-0.024820821414340315,0.0015360108720803203,-0.0006139665131521775
0.0009951869235652114,-0.0007780546197784233,26.16159742223055,0.002729456583625877,0.017098881177842185,-0.02559549258713704,0.001425595884961754,-0.0005638534558826424
0.001012431622324132,-0.0007933663789856382,26.16159742223055,0.0028074581607447206,0.018102690450786857,-0.026381203086519072,0.0013231666218679852,-0.0006005324566968432
0.0010394282333637413,-0.0008153063299403129,26.16159742223055,0.0029184226483100336,0.019128620378630792,-0.027185539440982048,0.0013280146091611638,-0.000690798836885369
0.0010744760260723285,-0.0008424009222611772,26.16159742223055,0.0030543108843028026,0.020185572508348827,-0.028014393067082793,0.0014051737048462903,-0.0008115135240049772
0.0011259675780883871,-0.0008712441168139406,26.16159742223055,0.00323284086400227,0.021285794310429186,-0.02887121558662035,0.0016177925950202243,-0.0009261764701201031
0.0011925655124549021,-0.0008823872218313156,26.16159742223055,0.0034374410262262107,0.022445060855700832,-0.02974803125594298,0.0019290842538030467,-0.0008590817029834926
0.0012552245295889208,-0.000871303554505154,26.16159742223055,0.00361519644134828,0.023668955876722745,-0.030624876644111215,0.002147969090693571,-0.0006021244176577519
0.001306867162960431,-0.0008388900442390934,26.16159742223055,0.0037514878402728686,0.024950001722997422,-0.03147997344348334,0.0022269077412175593,-0.00019797897566488294
0.0013292446826007232,-0.0007944903046013252,26.16159742223055,0.003808653805781354,0.026268057645777998,-0.03229666361790355,0.0020254474213624776,0.00024165119843571597
0.001333235903538831,-0.0007368385652153364,26.16159742223055,0.0038212013863898574,0.027599297938847776,-0.03306232805281188,0.0016934680805521028,0.0007218213385927573
0.0013038451108778005,-0.0006619149490241227,26.16159742223055,0.0037521594487068283,0.028917838446056093,-0.03376170480993161,0.0011183757689878057,0.0012717048787687438
0.0012450610685118026,-0.0005818785841009699,26.16159742223055,0.0036236353774742264,0.030192291535750895,-0.03438360157649416,0.0003806343349354958,0.0017680891273849065
0.0011594670684183608,-0.0005039265587081232,26.16159742223055,0.003449194331633399,0.03139455560421597,-0.034926504147898704,-0.0004666991813567923,0.0021552731532498933
0.001065170491122519,-0.0004210059929619092,26.16159742223055,0.003273063543526321,0.03250687438398641,-0.03538897042373372,-0.001239086396526846,0.0025172286321700392
0.0009556397055053864,-0.0003283248321928056,26.16159742223055,0.0030729861907279883,0.03351727948230036,-0.03576363583631108,-0.002009532375495897,0.0029021067060400647
0.0008392160566141847,-0.0002301062505836171,26.16159742223055,0.002871029904767707,0.03441470736336015,-0.03604285137769929,-0.002702559660780294,0.003267347137752675
0.0007133920246576223,-0.0001276878577822771,26.16159742223055,0.00265827690065462,0.03519101140399605,-0.036221748431882236,-0.0033550400129708077,0.003604360319991643
0.0005818311981269969,-3.433737538749426e-05,26.16159742223055,0.002448539462399623,0.035838623015388364,-0.03630276104846712,-0.003941040251799982,0.0037976628290366417
0.00046226692736525606,5.879793695844982e-05,26.16159742223055,0.002279687796725392,0.03636067207813449,-0.03629053076768164,-0.004311435394761264,0.003953863335993107
0.0003450776187123136,0.00015863973001985915,26.16159742223055,0.0021172459913726,0.036764344351173275,-0.03618181193419249,-0.004592895401649601,0.004142631757279898
0.0002306653930250756,0.0002523120370866898,26.16159742223055,0.0019657646540980935,0.03705221585704197,-0.03597633605063921,-0.004797934653051837,0.004240992411109286
0.00012593903760171166,0.00033957407492808374,26.16159742223055,0.0018404702810029883,0.03723051807235536,-0.03568039299463183,-0.004877640674527537,0.004263194134920269
2.8166747858956553e-05,0.00041650445964010055,26.16159742223055,0.0017327696706835212,0.0373075709650857,-0.03530235372734773,-0.00487963591318394,0.004187435062316736
-2.9020499752850952e-05,0.00047217479439610023,26.16159742223055,0.0017313859062594134,0.03730714408913875,-0.03485801410032963,-0.004512313452712382,0.003932177185131871
-8.889545240928115e-05,0.0005219853270987916,26.16159742223055,0.0017089689865889893,0.037248186113057684,-0.03436093403958219,-0.004236210576368586,0.003670058903314179
-0.00013184572228247757,0.0005736326040443798,26.16159742223055,0.001714453288337873,0.037137815525711805,-0.0338131250740106,-0.0038564474704215375,0.003472296165853311
-0.0001619226421180466,0.0006232231036816648,26.16159742223055,0.0017371863578555702,0.03699093134351154,-0.03321469722014758,-0.003428701747031885,0.0032917923142189364
